# NH3 partition function based on the formula (15.47) in Wilson 2009 (Tools of Radio Astronomy; fifth edition)
# terms are considered up to J=100
# consistent statistical weight with the data from JPL (g_u=6 for (1,1) para inversion transition, g_u=28 for (3,3) ortho inversion transition)
# T [K]                  Q
0.000000000000000000e+00 0.000000000000000000e+00
1.000000000000000000e+00 4.000000000472823558e+00
2.000000000000000000e+00 4.000056805395700188e+00
3.000000000000000000e+00 4.003000562969507570e+00
4.000000000000000000e+00 4.022548399848525413e+00
5.000000000000000000e+00 4.076801090580842946e+00
6.000000000000000000e+00 4.175300120493655065e+00
7.000000000000000000e+00 4.317831585242594805e+00
8.000000000000000000e+00 4.498913097916080517e+00
9.000000000000000000e+00 4.711655605099624999e+00
1.000000000000000000e+01 4.949765431763847090e+00
1.100000000000000000e+01 5.208235923606015838e+00
1.200000000000000000e+01 5.483385206949767721e+00
1.300000000000000000e+01 5.772647726290781378e+00
1.400000000000000000e+01 6.074316953958385668e+00
1.500000000000000000e+01 6.387316238774423560e+00
1.600000000000000000e+01 6.711017741986177398e+00
1.700000000000000000e+01 7.045106827166291552e+00
1.800000000000000000e+01 7.389482737151932490e+00
1.900000000000000000e+01 7.744186268557516684e+00
2.000000000000000000e+01 8.109346998515395200e+00
2.100000000000000000e+01 8.485144640930188942e+00
2.200000000000000000e+01 8.871780740302169121e+00
2.300000000000000000e+01 9.269458073400990372e+00
2.400000000000000000e+01 9.678365908624597225e+00
2.500000000000000000e+01 1.009866978276319216e+01
2.600000000000000000e+01 1.053050478933680978e+01
2.700000000000000000e+01 1.097397159821360901e+01
2.800000000000000000e+01 1.142913458561674922e+01
2.900000000000000000e+01 1.189602157269336047e+01
3.000000000000000000e+01 1.237462476440193626e+01
3.100000000000000000e+01 1.286490255685462714e+01
3.200000000000000000e+01 1.336678194499572214e+01
3.300000000000000000e+01 1.388016131619708204e+01
3.400000000000000000e+01 1.440491346060074918e+01
3.500000000000000000e+01 1.494088866696314888e+01
3.600000000000000000e+01 1.548791780426516240e+01
3.700000000000000000e+01 1.604581531525698779e+01
3.800000000000000000e+01 1.661438206915475746e+01
3.900000000000000000e+01 1.719340803759219583e+01
4.000000000000000000e+01 1.778267477129372054e+01
4.100000000000000000e+01 1.838195766535181974e+01
4.200000000000000000e+01 1.899102800897148313e+01
4.300000000000000000e+01 1.960965482153359574e+01
4.400000000000000000e+01 2.023760648120849837e+01
4.500000000000000000e+01 2.087465215544397523e+01
4.600000000000000000e+01 2.152056304472800008e+01
4.700000000000000000e+01 2.217511345230899877e+01
4.800000000000000000e+01 2.283808169322773196e+01
4.900000000000000000e+01 2.350925085622264987e+01
5.000000000000000000e+01 2.418840943193375637e+01
5.100000000000000000e+01 2.487535182044349114e+01
5.200000000000000000e+01 2.556987873063106065e+01
5.300000000000000000e+01 2.627179748313731622e+01
5.400000000000000000e+01 2.698092222798689477e+01
5.500000000000000000e+01 2.769707408712539376e+01
5.600000000000000000e+01 2.842008123133022224e+01
5.700000000000000000e+01 2.914977890016164253e+01
5.800000000000000000e+01 2.988600937285058023e+01
5.900000000000000000e+01 3.062862189728127760e+01
6.000000000000000000e+01 3.137747258352665369e+01
6.100000000000000000e+01 3.213242426773568639e+01
6.200000000000000000e+01 3.289334635155823605e+01
6.300000000000000000e+01 3.366011462172369306e+01
6.400000000000000000e+01 3.443261105386527987e+01
6.500000000000000000e+01 3.521072360420053826e+01
6.600000000000000000e+01 3.599434599224008480e+01
6.700000000000000000e+01 3.678337747729609220e+01
6.800000000000000000e+01 3.757772263120119760e+01
6.900000000000000000e+01 3.837729110932112775e+01
7.000000000000000000e+01 3.918199742165037947e+01
7.100000000000000000e+01 3.999176070551666839e+01
7.200000000000000000e+01 4.080650450118392314e+01
7.300000000000000000e+01 4.162615653143363659e+01
7.400000000000000000e+01 4.245064848601734298e+01
7.500000000000000000e+01 4.327991581170806512e+01
7.600000000000000000e+01 4.411389750853233238e+01
7.700000000000000000e+01 4.495253593263640823e+01
7.800000000000000000e+01 4.579577660612820011e+01
7.900000000000000000e+01 4.664356803413765107e+01
8.000000000000000000e+01 4.749586152925458293e+01
8.100000000000000000e+01 4.835261104342854566e+01
8.200000000000000000e+01 4.921377300735275639e+01
8.300000000000000000e+01 5.007930617730039558e+01
8.400000000000000000e+01 5.094917148933588180e+01
8.500000000000000000e+01 5.182333192078582584e+01
8.600000000000000000e+01 5.270175235882256004e+01
8.700000000000000000e+01 5.358439947598733966e+01
8.800000000000000000e+01 5.447124161245932328e+01
8.900000000000000000e+01 5.536224866486018925e+01
9.000000000000000000e+01 5.625739198137149799e+01
9.100000000000000000e+01 5.715664426293322720e+01
9.200000000000000000e+01 5.805997947028478734e+01
9.300000000000000000e+01 5.896737273660734502e+01
9.400000000000000000e+01 5.987880028552366696e+01
9.500000000000000000e+01 6.079423935421281300e+01
9.600000000000000000e+01 6.171366812139855540e+01
9.700000000000000000e+01 6.263706563997375554e+01
9.800000000000000000e+01 6.356441177402746945e+01
9.900000000000000000e+01 6.449568714004637116e+01
1.000000000000000000e+02 6.543087305206876181e+01
1.010000000000000000e+02 6.636995147057534439e+01
1.020000000000000000e+02 6.731290495490844705e+01
1.030000000000000000e+02 6.825971661901849075e+01
1.040000000000000000e+02 6.921037009034449738e+01
1.050000000000000000e+02 7.016484947164255459e+01
1.060000000000000000e+02 7.112313930558460129e+01
1.070000000000000000e+02 7.208522454195752971e+01
1.080000000000000000e+02 7.305109050730047215e+01
1.090000000000000000e+02 7.402072287682526053e+01
1.100000000000000000e+02 7.499410764847419841e+01
1.110000000000000000e+02 7.597123111897460035e+01
1.120000000000000000e+02 7.695207986175873316e+01
1.130000000000000000e+02 7.793664070662350696e+01
1.140000000000000000e+02 7.892490072101199416e+01
1.150000000000000000e+02 7.991684719280478078e+01
1.160000000000000000e+02 8.091246761451587588e+01
1.170000000000000000e+02 8.191174966879420083e+01
1.180000000000000000e+02 8.291468121513685219e+01
1.190000000000000000e+02 8.392125027772665646e+01
1.200000000000000000e+02 8.493144503431165049e+01
1.210000000000000000e+02 8.594525380604889619e+01
1.220000000000000000e+02 8.696266504824055232e+01
1.230000000000000000e+02 8.798366734189406202e+01
1.240000000000000000e+02 8.900824938604338854e+01
1.250000000000000000e+02 9.003639999077167033e+01
1.260000000000000000e+02 9.106810807088015736e+01
1.270000000000000000e+02 9.210336264015191432e+01
1.280000000000000000e+02 9.314215280616198811e+01
1.290000000000000000e+02 9.418446776558943156e+01
1.300000000000000000e+02 9.523029679998941788e+01
1.310000000000000000e+02 9.627962927198692000e+01
1.320000000000000000e+02 9.733245462185567476e+01
1.330000000000000000e+02 9.838876236444951928e+01
1.340000000000000000e+02 9.944854208645486437e+01
1.350000000000000000e+02 1.005117834439357978e+02
1.360000000000000000e+02 1.015784761601453141e+02
1.370000000000000000e+02 1.026486100235781862e+02
1.380000000000000000e+02 1.037221748862429536e+02
1.390000000000000000e+02 1.047991606621320955e+02
1.400000000000000000e+02 1.058795573258710760e+02
1.410000000000000000e+02 1.069633549115287394e+02
1.420000000000000000e+02 1.080505435115728119e+02
1.430000000000000000e+02 1.091411132759551066e+02
1.440000000000000000e+02 1.102350544113135413e+02
1.450000000000000000e+02 1.113323571802773699e+02
1.460000000000000000e+02 1.124330119008650399e+02
1.470000000000000000e+02 1.135370089459635210e+02
1.480000000000000000e+02 1.146443387428797394e+02
1.490000000000000000e+02 1.157549917729553641e+02
1.500000000000000000e+02 1.168689585712369023e+02
1.510000000000000000e+02 1.179862297261937840e+02
1.520000000000000000e+02 1.191067958794779997e+02
1.530000000000000000e+02 1.202306477257191517e+02
1.540000000000000000e+02 1.213577760123497455e+02
1.550000000000000000e+02 1.224881715394555499e+02
1.560000000000000000e+02 1.236218251596469742e+02
1.570000000000000000e+02 1.247587277779471719e+02
1.580000000000000000e+02 1.258988703516937733e+02
1.590000000000000000e+02 1.270422438904506350e+02
1.600000000000000000e+02 1.281888394559269670e+02
1.610000000000000000e+02 1.293386481619017729e+02
1.620000000000000000e+02 1.304916611741505790e+02
1.630000000000000000e+02 1.316478697103731861e+02
1.640000000000000000e+02 1.328072650401203987e+02
1.650000000000000000e+02 1.339698384847187640e+02
1.660000000000000000e+02 1.351355814171907355e+02
1.670000000000000000e+02 1.363044852621713972e+02
1.680000000000000000e+02 1.374765414958182532e+02
1.690000000000000000e+02 1.386517416457153900e+02
1.700000000000000000e+02 1.398300772907701912e+02
1.710000000000000000e+02 1.410115400611022096e+02
1.720000000000000000e+02 1.421961216379246480e+02
1.730000000000000000e+02 1.433838137534168311e+02
1.740000000000000000e+02 1.445746081905882079e+02
1.750000000000000000e+02 1.457684967831339407e+02
1.760000000000000000e+02 1.469654714152811437e+02
1.770000000000000000e+02 1.481655240216267089e+02
1.780000000000000000e+02 1.493686465869661788e+02
1.790000000000000000e+02 1.505748311461135813e+02
1.800000000000000000e+02 1.517840697837131358e+02
1.810000000000000000e+02 1.529963546340421772e+02
1.820000000000000000e+02 1.542116778808057234e+02
1.830000000000000000e+02 1.554300317569234267e+02
1.840000000000000000e+02 1.566514085443083673e+02
1.850000000000000000e+02 1.578758005736381733e+02
1.860000000000000000e+02 1.591032002241193766e+02
1.870000000000000000e+02 1.603335999232442646e+02
1.880000000000000000e+02 1.615669921465411107e+02
1.890000000000000000e+02 1.628033694173187200e+02
1.900000000000000000e+02 1.640427243064034997e+02
1.910000000000000000e+02 1.652850494318723236e+02
1.920000000000000000e+02 1.665303374587788880e+02
1.930000000000000000e+02 1.677785810988751791e+02
1.940000000000000000e+02 1.690297731103284207e+02
1.950000000000000000e+02 1.702839062974331341e+02
1.960000000000000000e+02 1.715409735103192475e+02
1.970000000000000000e+02 1.728009676446559979e+02
1.980000000000000000e+02 1.740638816413528787e+02
1.990000000000000000e+02 1.753297084862561803e+02
2.000000000000000000e+02 1.765984412098436849e+02
2.010000000000000000e+02 1.778700728869157501e+02
2.020000000000000000e+02 1.791445966362842910e+02
2.030000000000000000e+02 1.804220056204594869e+02
2.040000000000000000e+02 1.817022930453345566e+02
2.050000000000000000e+02 1.829854521598683732e+02
2.060000000000000000e+02 1.842714762557674248e+02
2.070000000000000000e+02 1.855603586671657297e+02
2.080000000000000000e+02 1.868520927703041252e+02
2.090000000000000000e+02 1.881466719832084777e+02
2.100000000000000000e+02 1.894440897653676643e+02
2.110000000000000000e+02 1.907443396174105033e+02
2.120000000000000000e+02 1.920474150807829972e+02
2.130000000000000000e+02 1.933533097374253202e+02
2.140000000000000000e+02 1.946620172094487771e+02
2.150000000000000000e+02 1.959735311588130742e+02
2.160000000000000000e+02 1.972878452870040462e+02
2.170000000000000000e+02 1.986049533347121780e+02
2.180000000000000000e+02 1.999248490815112973e+02
2.190000000000000000e+02 2.012475263455384038e+02
2.200000000000000000e+02 2.025729789831746643e+02
2.210000000000000000e+02 2.039012008887269474e+02
2.220000000000000000e+02 2.052321859941111484e+02
2.230000000000000000e+02 2.065659282685362541e+02
2.240000000000000000e+02 2.079024217181900553e+02
2.250000000000000000e+02 2.092416603859265081e+02
2.260000000000000000e+02 2.105836383509542600e+02
2.270000000000000000e+02 2.119283497285271665e+02
2.280000000000000000e+02 2.132757886696362277e+02
2.290000000000000000e+02 2.146259493607037427e+02
2.300000000000000000e+02 2.159788260232788275e+02
2.310000000000000000e+02 2.173344129137351786e+02
2.320000000000000000e+02 2.186927043229707692e+02
2.330000000000000000e+02 2.200536945761094501e+02
2.340000000000000000e+02 2.214173780322047378e+02
2.350000000000000000e+02 2.227837490839457644e+02
2.360000000000000000e+02 2.241528021573651017e+02
2.370000000000000000e+02 2.255245317115493435e+02
2.380000000000000000e+02 2.268989322383511649e+02
2.390000000000000000e+02 2.282759982621043378e+02
2.400000000000000000e+02 2.296557243393406793e+02
2.410000000000000000e+02 2.310381050585093021e+02
2.420000000000000000e+02 2.324231350396983373e+02
2.430000000000000000e+02 2.338108089343589313e+02
2.440000000000000000e+02 2.352011214250314879e+02
2.450000000000000000e+02 2.365940672250746957e+02
2.460000000000000000e+02 2.379896410783963461e+02
2.470000000000000000e+02 2.393878377591870787e+02
2.480000000000000000e+02 2.407886520716562586e+02
2.490000000000000000e+02 2.421920788497702119e+02
2.500000000000000000e+02 2.435981129569933046e+02
2.510000000000000000e+02 2.450067492860306402e+02
2.520000000000000000e+02 2.464179827585740554e+02
2.530000000000000000e+02 2.478318083250499058e+02
2.540000000000000000e+02 2.492482209643694944e+02
2.550000000000000000e+02 2.506672156836819454e+02
2.560000000000000000e+02 2.520887875181293794e+02
2.570000000000000000e+02 2.535129315306044191e+02
2.580000000000000000e+02 2.549396428115101116e+02
2.590000000000000000e+02 2.563689164785225216e+02
2.600000000000000000e+02 2.578007476763552859e+02
2.610000000000000000e+02 2.592351315765264985e+02
2.620000000000000000e+02 2.606720633771282110e+02
2.630000000000000000e+02 2.621115383025985466e+02
2.640000000000000000e+02 2.635535516034947250e+02
2.650000000000000000e+02 2.649980985562703495e+02
2.660000000000000000e+02 2.664451744630536609e+02
2.670000000000000000e+02 2.678947746514281789e+02
2.680000000000000000e+02 2.693468944742160147e+02
2.690000000000000000e+02 2.708015293092632874e+02
2.700000000000000000e+02 2.722586745592273019e+02
2.710000000000000000e+02 2.737183256513668539e+02
2.720000000000000000e+02 2.751804780373335007e+02
2.730000000000000000e+02 2.766451271929662425e+02
2.740000000000000000e+02 2.781122686180874553e+02
2.750000000000000000e+02 2.795818978363012093e+02
2.760000000000000000e+02 2.810540103947938633e+02
2.770000000000000000e+02 2.825286018641363626e+02
2.780000000000000000e+02 2.840056678380892663e+02
2.790000000000000000e+02 2.854852039334089113e+02
2.800000000000000000e+02 2.869672057896566457e+02
2.810000000000000000e+02 2.884516690690089717e+02
2.820000000000000000e+02 2.899385894560705310e+02
2.830000000000000000e+02 2.914279626576885676e+02
2.840000000000000000e+02 2.929197844027700057e+02
2.850000000000000000e+02 2.944140504420992102e+02
2.860000000000000000e+02 2.959107565481589859e+02
2.870000000000000000e+02 2.974098985149526584e+02
2.880000000000000000e+02 2.989114721578283707e+02
2.890000000000000000e+02 3.004154733133050854e+02
2.900000000000000000e+02 3.019218978389004064e+02
2.910000000000000000e+02 3.034307416129601620e+02
2.920000000000000000e+02 3.049420005344900346e+02
2.930000000000000000e+02 3.064556705229889531e+02
2.940000000000000000e+02 3.079717475182835642e+02
2.950000000000000000e+02 3.094902274803652062e+02
2.960000000000000000e+02 3.110111063892286438e+02
2.970000000000000000e+02 3.125343802447116559e+02
2.980000000000000000e+02 3.140600450663371248e+02
2.990000000000000000e+02 3.155880968931562052e+02
3.000000000000000000e+02 3.171185317835939372e+02
3.010000000000000000e+02 3.186513458152953717e+02
3.020000000000000000e+02 3.201865350849742526e+02
3.030000000000000000e+02 3.217240957082623254e+02
3.040000000000000000e+02 3.232640238195616575e+02
3.050000000000000000e+02 3.248063155718966755e+02
3.060000000000000000e+02 3.263509671367692135e+02
3.070000000000000000e+02 3.278979747040144730e+02
3.080000000000000000e+02 3.294473344816583449e+02
3.090000000000000000e+02 3.309990426957763816e+02
3.100000000000000000e+02 3.325530955903543031e+02
3.110000000000000000e+02 3.341094894271499243e+02
3.120000000000000000e+02 3.356682204855560485e+02
3.130000000000000000e+02 3.372292850624656921e+02
3.140000000000000000e+02 3.387926794721378201e+02
3.150000000000000000e+02 3.403584000460647303e+02
3.160000000000000000e+02 3.419264431328408591e+02
3.170000000000000000e+02 3.434968050980332919e+02
3.180000000000000000e+02 3.450694823240525579e+02
3.190000000000000000e+02 3.466444712100259267e+02
3.200000000000000000e+02 3.482217681716712718e+02
3.210000000000000000e+02 3.498013696411722435e+02
3.220000000000000000e+02 3.513832720670549179e+02
3.230000000000000000e+02 3.529674719140660386e+02
3.240000000000000000e+02 3.545539656630513718e+02
3.250000000000000000e+02 3.561427498108363352e+02
3.260000000000000000e+02 3.577338208701075928e+02
3.270000000000000000e+02 3.593271753692954462e+02
3.280000000000000000e+02 3.609228098524578741e+02
3.290000000000000000e+02 3.625207208791654239e+02
3.300000000000000000e+02 3.641209050243872980e+02
3.310000000000000000e+02 3.657233588783788036e+02
3.320000000000000000e+02 3.673280790465694281e+02
3.330000000000000000e+02 3.689350621494525058e+02
3.340000000000000000e+02 3.705443048224759650e+02
3.350000000000000000e+02 3.721558037159335868e+02
3.360000000000000000e+02 3.737695554948583094e+02
3.370000000000000000e+02 3.753855568389151927e+02
3.380000000000000000e+02 3.770038044422969961e+02
3.390000000000000000e+02 3.786242950136195873e+02
3.400000000000000000e+02 3.802470252758188280e+02
3.410000000000000000e+02 3.818719919660487676e+02
3.420000000000000000e+02 3.834991918355798362e+02
3.430000000000000000e+02 3.851286216496995394e+02
3.440000000000000000e+02 3.867602781876124709e+02
3.450000000000000000e+02 3.883941582423424848e+02
3.460000000000000000e+02 3.900302586206353794e+02
3.470000000000000000e+02 3.916685761428624346e+02
3.480000000000000000e+02 3.933091076429249142e+02
3.490000000000000000e+02 3.949518499681596495e+02
3.500000000000000000e+02 3.965967999792454748e+02
3.510000000000000000e+02 3.982439545501104021e+02
3.520000000000000000e+02 3.998933105678395350e+02
3.530000000000000000e+02 4.015448649325845736e+02
3.540000000000000000e+02 4.031986145574733200e+02
3.550000000000000000e+02 4.048545563685206616e+02
3.560000000000000000e+02 4.065126873045396678e+02
3.570000000000000000e+02 4.081730043170546196e+02
3.580000000000000000e+02 4.098355043702138119e+02
3.590000000000000000e+02 4.115001844407037197e+02
3.600000000000000000e+02 4.131670415176637334e+02
3.610000000000000000e+02 4.148360726026019734e+02
3.620000000000000000e+02 4.165072747093113890e+02
3.630000000000000000e+02 4.181806448637873928e+02
3.640000000000000000e+02 4.198561801041453805e+02
3.650000000000000000e+02 4.215338774805396724e+02
3.660000000000000000e+02 4.232137340550827957e+02
3.670000000000000000e+02 4.248957469017660173e+02
3.680000000000000000e+02 4.265799131063796494e+02
3.690000000000000000e+02 4.282662297664356856e+02
3.700000000000000000e+02 4.299546939910889023e+02
3.710000000000000000e+02 4.316453029010610862e+02
3.720000000000000000e+02 4.333380536285641256e+02
3.730000000000000000e+02 4.350329433172245217e+02
3.740000000000000000e+02 4.367299691220089244e+02
3.750000000000000000e+02 4.384291282091496669e+02
3.760000000000000000e+02 4.401304177560708695e+02
3.770000000000000000e+02 4.418338349513167032e+02
3.780000000000000000e+02 4.435393769944778910e+02
3.790000000000000000e+02 4.452470410961208245e+02
3.800000000000000000e+02 4.469568244777167934e+02
3.810000000000000000e+02 4.486687243715712725e+02
3.820000000000000000e+02 4.503827380207544593e+02
3.830000000000000000e+02 4.520988626790322087e+02
3.840000000000000000e+02 4.538170956107976508e+02
3.850000000000000000e+02 4.555374340910033766e+02
3.860000000000000000e+02 4.572598754050940215e+02
3.870000000000000000e+02 4.589844168489397589e+02
3.880000000000000000e+02 4.607110557287700772e+02
3.890000000000000000e+02 4.624397893611088080e+02
3.900000000000000000e+02 4.641706150727083582e+02
3.910000000000000000e+02 4.659035302004861023e+02
3.920000000000000000e+02 4.676385320914604335e+02
